     #Energy           s          py          pz          px         dxy         dyz         dz2         dxz      dx2-y2       tot  
   -15.63296     0.00000     0.00000     0.00000     0.00000     0.00000     0.00000     0.00000     0.00000     0.00000     0.00000
   -15.56296     0.00000     0.00000     0.00000     0.00000     0.00000     0.00000     0.00000     0.00000     0.00000     0.00000
   -15.49296     0.00000     0.00000     0.00000     0.00000     0.00000     0.00000     0.00000     0.00000     0.00000     0.00000
   -15.42296     0.00000     0.00000     0.00000     0.00000     0.00000     0.00000     0.00000     0.00000     0.00000     0.00000
   -15.35296     0.00000     0.00000     0.00000     0.00000     0.00000     0.00000     0.00000     0.00000     0.00000     0.00000
   -15.28296     0.00000     0.00000     0.00000     0.00000     0.00000     0.00000     0.00000     0.00000     0.00000     0.00000
   -15.21296     0.00000     0.00000     0.00000     0.00000     0.00000     0.00000     0.00000     0.00000     0.00000     0.00000
   -15.14296     0.00000     0.00000     0.00000     0.00000     0.00000     0.00000     0.00000     0.00000     0.00000     0.00000
   -15.07296     0.00000     0.00000     0.00000     0.00000     0.00000     0.00000     0.00000     0.00000     0.00000     0.00000
   -15.00296     0.00000     0.00000     0.00000     0.00000     0.00000     0.00000     0.00000     0.00000     0.00000     0.00000
   -14.93296     0.00000     0.00000     0.00000     0.00000     0.00000     0.00000     0.00000     0.00000     0.00000     0.00000
   -14.86296     0.00000     0.00000     0.00000     0.00000     0.00000     0.00000     0.00000     0.00000     0.00000     0.00000
   -14.79296     0.00000     0.00000     0.00000     0.00000     0.00000     0.00000     0.00000     0.00000     0.00000     0.00000
   -14.72296    -0.00000    -0.00000    -0.00000    -0.00000    -0.00000    -0.00000    -0.00000    -0.00000    -0.00000    -0.00000
   -14.65296    -0.00379    -0.00000    -0.00000    -0.00000    -0.00000    -0.00000    -0.00001    -0.00000    -0.00000    -0.00381
   -14.58296    -0.01157    -0.00002    -0.00000    -0.00002    -0.00001    -0.00000    -0.00003    -0.00000    -0.00001    -0.01167
   -14.51196    -0.02860    -0.00010    -0.00002    -0.00010    -0.00004    -0.00000    -0.00008    -0.00000    -0.00004    -0.02899
   -14.44196    -0.04707    -0.00024    -0.00004    -0.00024    -0.00010    -0.00000    -0.00013    -0.00000    -0.00010    -0.04792
   -14.37196    -0.05832    -0.00046    -0.00006    -0.00046    -0.00018    -0.00000    -0.00017    -0.00000    -0.00018    -0.05983
   -14.30196    -0.06749    -0.00072    -0.00007    -0.00072    -0.00030    -0.00000    -0.00020    -0.00000    -0.00030    -0.06979
   -14.23196    -0.07417    -0.00098    -0.00008    -0.00098    -0.00041    -0.00000    -0.00023    -0.00000    -0.00041    -0.07728
   -14.16196    -0.08089    -0.00132    -0.00008    -0.00132    -0.00057    -0.00001    -0.00026    -0.00001    -0.00057    -0.08502
   -14.09196    -0.08737    -0.00172    -0.00009    -0.00172    -0.00076    -0.00001    -0.00030    -0.00001    -0.00076    -0.09273
   -14.02196    -0.09313    -0.00215    -0.00010    -0.00215    -0.00098    -0.00001    -0.00034    -0.00001    -0.00098    -0.09985
   -13.95196    -0.09718    -0.00250    -0.00011    -0.00250    -0.00116    -0.00001    -0.00036    -0.00001    -0.00116    -0.10501
   -13.88196    -0.10048    -0.00283    -0.00011    -0.00283    -0.00134    -0.00001    -0.00039    -0.00001    -0.00134    -0.10935
   -13.81196    -0.10475    -0.00331    -0.00012    -0.00331    -0.00160    -0.00002    -0.00042    -0.00002    -0.00160    -0.11515
   -13.74196    -0.10942    -0.00392    -0.00013    -0.00392    -0.00195    -0.00002    -0.00046    -0.00002    -0.00195    -0.12180
   -13.67196    -0.11312    -0.00446    -0.00014    -0.00446    -0.00228    -0.00002    -0.00050    -0.00002    -0.00228    -0.12728
   -13.60196    -0.11640    -0.00503    -0.00014    -0.00503    -0.00263    -0.00003    -0.00053    -0.00003    -0.00263    -0.13246
   -13.53196    -0.12029    -0.00579    -0.00015    -0.00579    -0.00312    -0.00004    -0.00057    -0.00004    -0.00312    -0.13889
   -13.46196    -0.12330    -0.00645    -0.00032    -0.00645    -0.00356    -0.00004    -0.00061    -0.00004    -0.00356    -0.14434
   -13.39196    -0.12532    -0.00692    -0.00729    -0.00692    -0.00388    -0.00017    -0.00063    -0.00017    -0.00388    -0.15519
   -13.32196    -0.12793    -0.00761    -0.01706    -0.00761    -0.00437    -0.00059    -0.00066    -0.00059    -0.00437    -0.17080
   -13.25196    -0.13105    -0.00857    -0.02496    -0.00857    -0.00506    -0.00130    -0.00071    -0.00130    -0.00506    -0.18657
   -13.18196    -0.13365    -0.00950    -0.03343    -0.00950    -0.00576    -0.00230    -0.00074    -0.00230    -0.00576    -0.20294
   -13.11196    -0.13579    -0.01038    -0.03971    -0.01038    -0.00646    -0.00370    -0.00077    -0.00370    -0.00646    -0.21735
   -13.04196    -0.13795    -0.01142    -0.04474    -0.01142    -0.00730    -0.00554    -0.00081    -0.00554    -0.00730    -0.23201
   -12.97196    -0.14018    -0.01269    -0.04887    -0.01269    -0.00836    -0.00772    -0.00084    -0.00772    -0.00836    -0.24742
   -12.90196    -0.14230    -0.01417    -0.05224    -0.01417    -0.00965    -0.01014    -0.00088    -0.01014    -0.00965    -0.26333
   -12.83196    -0.14441    -0.01601    -0.05522    -0.01601    -0.01132    -0.01307    -0.00091    -0.01307    -0.01132    -0.28136
   -12.76196    -0.14918    -0.02179    -0.05776    -0.02179    -0.01691    -0.01650    -0.00098    -0.01650    -0.01691    -0.31832
   -12.69196    -0.15467    -0.02968    -0.05998    -0.02968    -0.02454    -0.02078    -0.00106    -0.02078    -0.02454    -0.36570
   -12.62196    -0.15744    -0.03592    -0.06193    -0.03592    -0.03041    -0.02615    -0.00111    -0.02615    -0.03041    -0.40543
   -12.55196    -0.15891    -0.04408    -0.06390    -0.04408    -0.03798    -0.03737    -0.00113    -0.03737    -0.03798    -0.46279
   -12.48196    -0.15943    -0.05104    -0.06629    -0.05104    -0.04443    -0.05934    -0.00114    -0.05934    -0.04443    -0.53647
   -12.41196    -0.15947    -0.05296    -0.06796    -0.05296    -0.04622    -0.08441    -0.00114    -0.08441    -0.04622    -0.59577
   -12.34196    -0.15948    -0.05299    -0.06845    -0.05299    -0.04624    -0.10492    -0.00114    -0.10492    -0.04624    -0.63738
   -12.27196    -0.15948    -0.05299    -0.06850    -0.05299    -0.04625    -0.11396    -0.00114    -0.11396    -0.04625    -0.65552
   -12.20196    -0.15948    -0.05299    -0.06850    -0.05299    -0.04625    -0.11396    -0.00114    -0.11396    -0.04625    -0.65552
   -12.13196    -0.15948    -0.05299    -0.06850    -0.05299    -0.04625    -0.11396    -0.00114    -0.11396    -0.04625    -0.65552
   -12.06196    -0.15948    -0.05299    -0.06850    -0.05299    -0.04625    -0.11396    -0.00114    -0.11396    -0.04625    -0.65552
   -11.99196    -0.15948    -0.05299    -0.06850    -0.05299    -0.04625    -0.11396    -0.00114    -0.11396    -0.04625    -0.65552
   -11.92196    -0.15948    -0.05299    -0.06850    -0.05299    -0.04625    -0.11396    -0.00114    -0.11396    -0.04625    -0.65552
   -11.85196    -0.15948    -0.05299    -0.06850    -0.05299    -0.04625    -0.11396    -0.00114    -0.11396    -0.04625    -0.65552
   -11.78196    -0.15948    -0.05299    -0.06850    -0.05299    -0.04625    -0.11396    -0.00114    -0.11396    -0.04625    -0.65552
   -11.71196    -0.15948    -0.05299    -0.06850    -0.05299    -0.04625    -0.11396    -0.00114    -0.11396    -0.04625    -0.65552
   -11.64196    -0.15948    -0.05299    -0.06850    -0.05299    -0.04625    -0.11396    -0.00114    -0.11396    -0.04625    -0.65552
   -11.57096    -0.15948    -0.05299    -0.06850    -0.05299    -0.04625    -0.11396    -0.00114    -0.11396    -0.04625    -0.65552
   -11.50096    -0.15948    -0.05299    -0.06850    -0.05299    -0.04625    -0.11396    -0.00114    -0.11396    -0.04625    -0.65552
   -11.43096    -0.15948    -0.05299    -0.06850    -0.05299    -0.04625    -0.11396    -0.00114    -0.11396    -0.04625    -0.65552
   -11.36096    -0.15948    -0.05299    -0.06850    -0.05299    -0.04625    -0.11396    -0.00114    -0.11396    -0.04625    -0.65552
   -11.29096    -0.15948    -0.05299    -0.06850    -0.05299    -0.04625    -0.11396    -0.00114    -0.11396    -0.04625    -0.65552
   -11.22096    -0.15948    -0.05299    -0.06850    -0.05299    -0.04625    -0.11396    -0.00114    -0.11396    -0.04625    -0.65552
   -11.15096    -0.15948    -0.05299    -0.06850    -0.05299    -0.04625    -0.11396    -0.00114    -0.11396    -0.04625    -0.65552
   -11.08096    -0.15948    -0.05299    -0.06850    -0.05299    -0.04625    -0.11396    -0.00114    -0.11396    -0.04625    -0.65552
   -11.01096    -0.15948    -0.05299    -0.06850    -0.05299    -0.04625    -0.11396    -0.00114    -0.11396    -0.04625    -0.65552
   -10.94096    -0.15948    -0.05299    -0.06850    -0.05299    -0.04625    -0.11396    -0.00114    -0.11396    -0.04625    -0.65552
   -10.87096    -0.15948    -0.05299    -0.06850    -0.05299    -0.04625    -0.11396    -0.00114    -0.11396    -0.04625    -0.65552
   -10.80096    -0.15948    -0.05299    -0.06850    -0.05299    -0.04625    -0.11396    -0.00114    -0.11396    -0.04625    -0.65552
   -10.73096    -0.15948    -0.05299    -0.06850    -0.05299    -0.04625    -0.11396    -0.00114    -0.11396    -0.04625    -0.65552
   -10.66096    -0.15948    -0.05299    -0.06850    -0.05299    -0.04625    -0.11396    -0.00114    -0.11396    -0.04625    -0.65552
   -10.59096    -0.15948    -0.05299    -0.06850    -0.05299    -0.04625    -0.11396    -0.00114    -0.11396    -0.04625    -0.65552
   -10.52096    -0.15948    -0.05299    -0.06850    -0.05299    -0.04625    -0.11396    -0.00114    -0.11396    -0.04625    -0.65552
   -10.45096    -0.15948    -0.05299    -0.06850    -0.05299    -0.04625    -0.11396    -0.00114    -0.11396    -0.04625    -0.65552
   -10.38096    -0.15948    -0.05299    -0.06850    -0.05299    -0.04625    -0.11396    -0.00114    -0.11396    -0.04625    -0.65552
   -10.31096    -0.15948    -0.05299    -0.06850    -0.05299    -0.04625    -0.11396    -0.00114    -0.11396    -0.04625    -0.65552
   -10.24096    -0.15948    -0.05299    -0.06850    -0.05299    -0.04625    -0.11396    -0.00114    -0.11396    -0.04625    -0.65552
   -10.17096    -0.15948    -0.05299    -0.06850    -0.05299    -0.04625    -0.11396    -0.00114    -0.11396    -0.04625    -0.65552
   -10.10096    -0.15948    -0.05299    -0.06850    -0.05299    -0.04625    -0.11396    -0.00114    -0.11396    -0.04625    -0.65552
   -10.03096    -0.15948    -0.05299    -0.06850    -0.05299    -0.04625    -0.11396    -0.00114    -0.11396    -0.04625    -0.65552
    -9.96096    -0.15948    -0.05299    -0.06850    -0.05299    -0.04625    -0.11396    -0.00114    -0.11396    -0.04625    -0.65552
    -9.89096    -0.15948    -0.05299    -0.06850    -0.05299    -0.04625    -0.11396    -0.00114    -0.11396    -0.04625    -0.65552
    -9.82096    -0.15948    -0.05299    -0.06850    -0.05299    -0.04625    -0.11396    -0.00114    -0.11396    -0.04625    -0.65552
    -9.75096    -0.15948    -0.05299    -0.06850    -0.05299    -0.04625    -0.11396    -0.00114    -0.11396    -0.04625    -0.65552
    -9.68096    -0.15948    -0.05299    -0.06850    -0.05299    -0.04625    -0.11396    -0.00114    -0.11396    -0.04625    -0.65552
    -9.61096    -0.15948    -0.05299    -0.06850    -0.05299    -0.04625    -0.11396    -0.00114    -0.11396    -0.04625    -0.65552
    -9.54096    -0.15948    -0.05299    -0.06850    -0.05299    -0.04625    -0.11396    -0.00114    -0.11396    -0.04625    -0.65552
    -9.47096    -0.15948    -0.05299    -0.06850    -0.05299    -0.04625    -0.11396    -0.00114    -0.11396    -0.04625    -0.65552
    -9.40096    -0.15948    -0.05299    -0.06850    -0.05299    -0.04625    -0.11396    -0.00114    -0.11396    -0.04625    -0.65552
    -9.33096    -0.15948    -0.05299    -0.06850    -0.05299    -0.04625    -0.11396    -0.00114    -0.11396    -0.04625    -0.65552
    -9.26096    -0.15948    -0.05299    -0.06850    -0.05299    -0.04625    -0.11396    -0.00114    -0.11396    -0.04625    -0.65552
    -9.19096    -0.15948    -0.05299    -0.06850    -0.05299    -0.04625    -0.11396    -0.00114    -0.11396    -0.04625    -0.65552
    -9.12096    -0.15948    -0.05299    -0.06850    -0.05299    -0.04625    -0.11396    -0.00114    -0.11396    -0.04625    -0.65552
    -9.05096    -0.15948    -0.05299    -0.06850    -0.05299    -0.04625    -0.11396    -0.00114    -0.11396    -0.04625    -0.65552
    -8.98096    -0.15948    -0.05299    -0.06850    -0.05299    -0.04625    -0.11396    -0.00114    -0.11396    -0.04625    -0.65552
    -8.91096    -0.15948    -0.05299    -0.06850    -0.05299    -0.04625    -0.11396    -0.00114    -0.11396    -0.04625    -0.65552
    -8.84096    -0.15948    -0.05299    -0.06850    -0.05299    -0.04625    -0.11396    -0.00114    -0.11396    -0.04625    -0.65552
    -8.77096    -0.15948    -0.05299    -0.06850    -0.05299    -0.04625    -0.11396    -0.00114    -0.11396    -0.04625    -0.65552
    -8.70096    -0.15948    -0.05299    -0.06850    -0.05299    -0.04625    -0.11396    -0.00114    -0.11396    -0.04625    -0.65552
    -8.62996    -0.15948    -0.05299    -0.06850    -0.05299    -0.04625    -0.11396    -0.00114    -0.11396    -0.04625    -0.65552
    -8.55996    -0.15948    -0.05299    -0.06850    -0.05299    -0.04625    -0.11396    -0.00114    -0.11396    -0.04625    -0.65552
    -8.48996    -0.15948    -0.05299    -0.06850    -0.05299    -0.04625    -0.11396    -0.00114    -0.11396    -0.04625    -0.65552
    -8.41996    -0.15948    -0.05299    -0.06850    -0.05299    -0.04625    -0.11396    -0.00114    -0.11396    -0.04625    -0.65552
    -8.34996    -0.15948    -0.05299    -0.06850    -0.05299    -0.04625    -0.11396    -0.00114    -0.11396    -0.04625    -0.65552
    -8.27996    -0.15948    -0.05299    -0.06850    -0.05299    -0.04625    -0.11396    -0.00114    -0.11396    -0.04625    -0.65552
    -8.20996    -0.15948    -0.05299    -0.06850    -0.05299    -0.04625    -0.11396    -0.00114    -0.11396    -0.04625    -0.65552
    -8.13996    -0.15948    -0.05299    -0.06850    -0.05299    -0.04625    -0.11396    -0.00114    -0.11396    -0.04625    -0.65552
    -8.06996    -0.15948    -0.05299    -0.06850    -0.05299    -0.04625    -0.11396    -0.00114    -0.11396    -0.04625    -0.65552
    -7.99996    -0.15948    -0.05299    -0.06850    -0.05299    -0.04625    -0.11396    -0.00114    -0.11396    -0.04625    -0.65552
    -7.92996    -0.15948    -0.05299    -0.06850    -0.05299    -0.04625    -0.11396    -0.00114    -0.11396    -0.04625    -0.65552
    -7.85996    -0.15948    -0.05299    -0.06850    -0.05299    -0.04625    -0.11396    -0.00114    -0.11396    -0.04625    -0.65552
    -7.78996    -0.15948    -0.05299    -0.06850    -0.05299    -0.04625    -0.11396    -0.00114    -0.11396    -0.04625    -0.65552
    -7.71996    -0.15948    -0.05299    -0.06850    -0.05299    -0.04625    -0.11396    -0.00114    -0.11396    -0.04625    -0.65552
    -7.64996    -0.15948    -0.05299    -0.06850    -0.05299    -0.04625    -0.11396    -0.00114    -0.11396    -0.04625    -0.65552
    -7.57996    -0.15948    -0.05299    -0.06850    -0.05299    -0.04625    -0.11396    -0.00114    -0.11396    -0.04625    -0.65552
    -7.50996    -0.15948    -0.05299    -0.06850    -0.05299    -0.04625    -0.11396    -0.00114    -0.11396    -0.04625    -0.65552
    -7.43996    -0.15948    -0.05299    -0.06850    -0.05299    -0.04625    -0.11396    -0.00114    -0.11396    -0.04625    -0.65552
    -7.36996    -0.15948    -0.05299    -0.06850    -0.05299    -0.04625    -0.11396    -0.00114    -0.11396    -0.04625    -0.65552
    -7.29996    -0.15948    -0.05299    -0.06850    -0.05299    -0.04625    -0.11396    -0.00114    -0.11396    -0.04625    -0.65552
    -7.22996    -0.15948    -0.05299    -0.06850    -0.05299    -0.04625    -0.11396    -0.00114    -0.11396    -0.04625    -0.65552
    -7.15996    -0.15948    -0.05299    -0.06850    -0.05299    -0.04625    -0.11396    -0.00114    -0.11396    -0.04625    -0.65552
    -7.08996    -0.15948    -0.05299    -0.06850    -0.05299    -0.04625    -0.11396    -0.00114    -0.11396    -0.04625    -0.65552
    -7.01996    -0.15948    -0.05299    -0.06850    -0.05299    -0.04625    -0.11396    -0.00114    -0.11396    -0.04625    -0.65552
    -6.94996    -0.15948    -0.05299    -0.06850    -0.05299    -0.04625    -0.11396    -0.00114    -0.11396    -0.04625    -0.65552
    -6.87996    -0.15948    -0.05299    -0.06850    -0.05299    -0.04625    -0.11396    -0.00114    -0.11396    -0.04625    -0.65552
    -6.80996    -0.15948    -0.05299    -0.06850    -0.05299    -0.04625    -0.11396    -0.00114    -0.11396    -0.04625    -0.65552
    -6.73996    -0.15948    -0.05299    -0.06850    -0.05299    -0.04625    -0.11396    -0.00114    -0.11396    -0.04625    -0.65552
    -6.66996    -0.15948    -0.05299    -0.06850    -0.05299    -0.04625    -0.11396    -0.00114    -0.11396    -0.04625    -0.65552
    -6.59996    -0.15948    -0.05299    -0.06850    -0.05299    -0.04625    -0.11396    -0.00114    -0.11396    -0.04625    -0.65552
    -6.52996    -0.15948    -0.05299    -0.06850    -0.05299    -0.04625    -0.11396    -0.00114    -0.11396    -0.04625    -0.65552
    -6.45996    -0.15948    -0.05299    -0.06850    -0.05299    -0.04625    -0.11396    -0.00114    -0.11396    -0.04625    -0.65552
    -6.38996    -0.16337    -0.05300    -0.06850    -0.05300    -0.04625    -0.11396    -0.00594    -0.11396    -0.04625    -0.66423
    -6.31996    -0.17033    -0.05305    -0.06850    -0.05305    -0.04635    -0.11396    -0.01443    -0.11396    -0.04635    -0.67997
    -6.24996    -0.18786    -0.05442    -0.06851    -0.05442    -0.05106    -0.11398    -0.02268    -0.11398    -0.05106    -0.71798
    -6.17996    -0.21516    -0.05697    -0.06853    -0.05697    -0.05992    -0.11405    -0.03202    -0.11405    -0.05992    -0.77759
    -6.10996    -0.23547    -0.05900    -0.06855    -0.05900    -0.06684    -0.11413    -0.03981    -0.11413    -0.06684    -0.82377
    -6.03996    -0.24904    -0.06049    -0.06857    -0.06049    -0.07203    -0.11419    -0.04568    -0.11419    -0.07203    -0.85671
    -5.96996    -0.26023    -0.06182    -0.06858    -0.06182    -0.07692    -0.11424    -0.05137    -0.11424    -0.07692    -0.88615
    -5.89996    -0.28033    -0.06316    -0.06868    -0.06316    -0.08181    -0.11976    -0.07401    -0.11976    -0.08181    -0.95250
    -5.82996    -0.30407    -0.06459    -0.06898    -0.06459    -0.08691    -0.15017    -0.10455    -0.15017    -0.08691    -1.08094
    -5.75996    -0.31940    -0.06606    -0.06957    -0.06606    -0.09253    -0.18606    -0.12325    -0.18606    -0.09253    -1.20152
    -5.68896    -0.33254    -0.06811    -0.07039    -0.06811    -0.10176    -0.20459    -0.14126    -0.20459    -0.10176    -1.29310
    -5.61896    -0.34524    -0.07078    -0.07164    -0.07078    -0.11318    -0.22099    -0.16064    -0.22099    -0.11318    -1.38743
    -5.54896    -0.35914    -0.07392    -0.07354    -0.07392    -0.12497    -0.23735    -0.17926    -0.23735    -0.12497    -1.48443
    -5.47896    -0.37309    -0.07699    -0.07616    -0.07699    -0.13638    -0.25069    -0.19743    -0.25069    -0.13638    -1.57479
    -5.40896    -0.38489    -0.07965    -0.08049    -0.07965    -0.14698    -0.26442    -0.21559    -0.26442    -0.14698    -1.66306
    -5.33896    -0.39628    -0.08256    -0.08827    -0.08256    -0.15920    -0.28128    -0.23543    -0.28128    -0.15920    -1.76605
    -5.26896    -0.40534    -0.08486    -0.09918    -0.08486    -0.16816    -0.29676    -0.25085    -0.29676    -0.16816    -1.85494
