     #Energy           s          py          pz          px         dxy         dyz         dz2         dxz      dx2-y2       tot  
   -15.63296     0.00000     0.00000     0.00000     0.00000     0.00000     0.00000     0.00000     0.00000     0.00000     0.00000
   -15.56296     0.00000     0.00000     0.00000     0.00000     0.00000     0.00000     0.00000     0.00000     0.00000     0.00000
   -15.49296     0.00000     0.00000     0.00000     0.00000     0.00000     0.00000     0.00000     0.00000     0.00000     0.00000
   -15.42296     0.00000     0.00000     0.00000     0.00000     0.00000     0.00000     0.00000     0.00000     0.00000     0.00000
   -15.35296     0.00000     0.00000     0.00000     0.00000     0.00000     0.00000     0.00000     0.00000     0.00000     0.00000
   -15.28296     0.00000     0.00000     0.00000     0.00000     0.00000     0.00000     0.00000     0.00000     0.00000     0.00000
   -15.21296     0.00000     0.00000     0.00000     0.00000     0.00000     0.00000     0.00000     0.00000     0.00000     0.00000
   -15.14296     0.00000     0.00000     0.00000     0.00000     0.00000     0.00000     0.00000     0.00000     0.00000     0.00000
   -15.07296     0.00000     0.00000     0.00000     0.00000     0.00000     0.00000     0.00000     0.00000     0.00000     0.00000
   -15.00296     0.00000     0.00000     0.00000     0.00000     0.00000     0.00000     0.00000     0.00000     0.00000     0.00000
   -14.93296     0.00000     0.00000     0.00000     0.00000     0.00000     0.00000     0.00000     0.00000     0.00000     0.00000
   -14.86296     0.00000     0.00000     0.00000     0.00000     0.00000     0.00000     0.00000     0.00000     0.00000     0.00000
   -14.79296     0.00000     0.00000     0.00000     0.00000     0.00000     0.00000     0.00000     0.00000     0.00000     0.00000
   -14.72296     0.00000     0.00000     0.00000     0.00000     0.00000     0.00000     0.00000     0.00000     0.00000     0.00000
   -14.65296     0.01650     0.00000     0.00025     0.00000     0.00000     0.00000     0.00000     0.00000     0.00000     0.01675
   -14.58296     0.05047     0.00001     0.00077     0.00001     0.00000     0.00000     0.00000     0.00000     0.00000     0.05125
   -14.51196     0.12414     0.00003     0.00207     0.00003     0.00000     0.00000     0.00000     0.00000     0.00000     0.12627
   -14.44196     0.20471     0.00006     0.00352     0.00006     0.00000     0.00000     0.00000     0.00000     0.00000     0.20835
   -14.37196     0.25624     0.00012     0.00443     0.00012     0.00000     0.00000     0.00000     0.00000     0.00000     0.26090
   -14.30196     0.29983     0.00019     0.00518     0.00019     0.00000     0.00000     0.00000     0.00000     0.00000     0.30538
   -14.23196     0.33308     0.00025     0.00575     0.00025     0.00000     0.00000     0.00000     0.00000     0.00000     0.33933
   -14.16196     0.36777     0.00033     0.00634     0.00033     0.00000     0.00000     0.00000     0.00000     0.00000     0.37477
   -14.09196     0.40268     0.00043     0.00694     0.00043     0.00000     0.00000     0.00000     0.00000     0.00000     0.41047
   -14.02196     0.43533     0.00053     0.00749     0.00053     0.00000     0.00000     0.00000     0.00000     0.00000     0.44387
   -13.95196     0.45925     0.00060     0.00789     0.00060     0.00000     0.00000     0.00000     0.00000     0.00000     0.46834
   -13.88196     0.47957     0.00068     0.00823     0.00068     0.00000     0.00000     0.00000     0.00000     0.00000     0.48914
   -13.81196     0.50687     0.00078     0.00869     0.00078     0.00000     0.00000     0.00000     0.00000     0.00000     0.51711
   -13.74196     0.53860     0.00090     0.00922     0.00090     0.00000     0.00000     0.00000     0.00000     0.00000     0.54961
   -13.67196     0.56503     0.00100     0.00966     0.00100     0.00000     0.00000     0.00000     0.00000     0.00000     0.57670
   -13.60196     0.59028     0.00110     0.01008     0.00110     0.00000     0.00000     0.00000     0.00000     0.00000     0.60257
   -13.53196     0.62206     0.00124     0.01061     0.00124     0.00000     0.00000     0.00000     0.00000     0.00000     0.63514
   -13.46196     0.65007     0.00134     0.01106     0.00134     0.00000     0.00000     0.00000     0.00000     0.00000     0.66381
   -13.39196     0.74401     0.00143     0.01145     0.00143     0.00000     0.00000     0.00000     0.00000     0.00000     0.75831
   -13.32196     0.87801     0.00156     0.01201     0.00156     0.00000     0.00000     0.00000     0.00000     0.00000     0.89314
   -13.25196     1.00166     0.00174     0.01273     0.00174     0.00000     0.00000     0.00000     0.00000     0.00000     1.01787
   -13.18196     1.13119     0.00192     0.01345     0.00192     0.00000     0.00000     0.00000     0.00000     0.00000     1.14849
   -13.11196     1.23943     0.00211     0.01412     0.00211     0.00000     0.00000     0.00000     0.00000     0.00000     1.25777
   -13.04196     1.34271     0.00232     0.01487     0.00232     0.00000     0.00000     0.00000     0.00000     0.00000     1.36222
   -12.97196     1.44562     0.00254     0.01573     0.00254     0.00000     0.00000     0.00000     0.00000     0.00000     1.46642
   -12.90196     1.54762     0.00275     0.01668     0.00275     0.00000     0.00000     0.00000     0.00000     0.00000     1.56980
   -12.83196     1.65938     0.00295     0.01784     0.00295     0.00000     0.00000     0.00000     0.00000     0.00000     1.68312
   -12.76196     1.87347     0.00317     0.02083     0.00317     0.00000     0.00000     0.00000     0.00000     0.00000     1.90064
   -12.69196     2.14408     0.00339     0.02482     0.00339     0.00000     0.00000     0.00000     0.00000     0.00000     2.17569
   -12.62196     2.37268     0.00358     0.02805     0.00358     0.00000     0.00000     0.00000     0.00000     0.00000     2.40790
   -12.55196     2.69959     0.00378     0.03247     0.00378     0.00000     0.00000     0.00000     0.00000     0.00000     2.73962
   -12.48196     3.11496     0.00401     0.03738     0.00401     0.00000     0.00000     0.00000     0.00000     0.00000     3.16036
   -12.41196     3.44749     0.00417     0.04062     0.00417     0.00000     0.00000     0.00000     0.00000     0.00000     3.49644
   -12.34196     3.68194     0.00422     0.04270     0.00422     0.00000     0.00000     0.00000     0.00000     0.00000     3.73307
   -12.27196     3.78423     0.00423     0.04362     0.00423     0.00000     0.00000     0.00000     0.00000     0.00000     3.83630
   -12.20196     3.78423     0.00423     0.04362     0.00423     0.00000     0.00000     0.00000     0.00000     0.00000     3.83630
   -12.13196     3.78423     0.00423     0.04362     0.00423     0.00000     0.00000     0.00000     0.00000     0.00000     3.83630
   -12.06196     3.78423     0.00423     0.04362     0.00423     0.00000     0.00000     0.00000     0.00000     0.00000     3.83630
   -11.99196     3.78423     0.00423     0.04362     0.00423     0.00000     0.00000     0.00000     0.00000     0.00000     3.83630
   -11.92196     3.78423     0.00423     0.04362     0.00423     0.00000     0.00000     0.00000     0.00000     0.00000     3.83630
   -11.85196     3.78423     0.00423     0.04362     0.00423     0.00000     0.00000     0.00000     0.00000     0.00000     3.83630
   -11.78196     3.78423     0.00423     0.04362     0.00423     0.00000     0.00000     0.00000     0.00000     0.00000     3.83630
   -11.71196     3.78423     0.00423     0.04362     0.00423     0.00000     0.00000     0.00000     0.00000     0.00000     3.83630
   -11.64196     3.78423     0.00423     0.04362     0.00423     0.00000     0.00000     0.00000     0.00000     0.00000     3.83630
   -11.57096     3.78423     0.00423     0.04362     0.00423     0.00000     0.00000     0.00000     0.00000     0.00000     3.83630
   -11.50096     3.78423     0.00423     0.04362     0.00423     0.00000     0.00000     0.00000     0.00000     0.00000     3.83630
   -11.43096     3.78423     0.00423     0.04362     0.00423     0.00000     0.00000     0.00000     0.00000     0.00000     3.83630
   -11.36096     3.78423     0.00423     0.04362     0.00423     0.00000     0.00000     0.00000     0.00000     0.00000     3.83630
   -11.29096     3.78423     0.00423     0.04362     0.00423     0.00000     0.00000     0.00000     0.00000     0.00000     3.83630
   -11.22096     3.78423     0.00423     0.04362     0.00423     0.00000     0.00000     0.00000     0.00000     0.00000     3.83630
   -11.15096     3.78423     0.00423     0.04362     0.00423     0.00000     0.00000     0.00000     0.00000     0.00000     3.83630
   -11.08096     3.78423     0.00423     0.04362     0.00423     0.00000     0.00000     0.00000     0.00000     0.00000     3.83630
   -11.01096     3.78423     0.00423     0.04362     0.00423     0.00000     0.00000     0.00000     0.00000     0.00000     3.83630
   -10.94096     3.78423     0.00423     0.04362     0.00423     0.00000     0.00000     0.00000     0.00000     0.00000     3.83630
   -10.87096     3.78423     0.00423     0.04362     0.00423     0.00000     0.00000     0.00000     0.00000     0.00000     3.83630
   -10.80096     3.78423     0.00423     0.04362     0.00423     0.00000     0.00000     0.00000     0.00000     0.00000     3.83630
   -10.73096     3.78423     0.00423     0.04362     0.00423     0.00000     0.00000     0.00000     0.00000     0.00000     3.83630
   -10.66096     3.78423     0.00423     0.04362     0.00423     0.00000     0.00000     0.00000     0.00000     0.00000     3.83630
   -10.59096     3.78423     0.00423     0.04362     0.00423     0.00000     0.00000     0.00000     0.00000     0.00000     3.83630
   -10.52096     3.78423     0.00423     0.04362     0.00423     0.00000     0.00000     0.00000     0.00000     0.00000     3.83630
   -10.45096     3.78423     0.00423     0.04362     0.00423     0.00000     0.00000     0.00000     0.00000     0.00000     3.83630
   -10.38096     3.78423     0.00423     0.04362     0.00423     0.00000     0.00000     0.00000     0.00000     0.00000     3.83630
   -10.31096     3.78423     0.00423     0.04362     0.00423     0.00000     0.00000     0.00000     0.00000     0.00000     3.83630
   -10.24096     3.78423     0.00423     0.04362     0.00423     0.00000     0.00000     0.00000     0.00000     0.00000     3.83630
   -10.17096     3.78423     0.00423     0.04362     0.00423     0.00000     0.00000     0.00000     0.00000     0.00000     3.83630
   -10.10096     3.78423     0.00423     0.04362     0.00423     0.00000     0.00000     0.00000     0.00000     0.00000     3.83630
   -10.03096     3.78423     0.00423     0.04362     0.00423     0.00000     0.00000     0.00000     0.00000     0.00000     3.83630
    -9.96096     3.78423     0.00423     0.04362     0.00423     0.00000     0.00000     0.00000     0.00000     0.00000     3.83630
    -9.89096     3.78423     0.00423     0.04362     0.00423     0.00000     0.00000     0.00000     0.00000     0.00000     3.83630
    -9.82096     3.78423     0.00423     0.04362     0.00423     0.00000     0.00000     0.00000     0.00000     0.00000     3.83630
    -9.75096     3.78423     0.00423     0.04362     0.00423     0.00000     0.00000     0.00000     0.00000     0.00000     3.83630
    -9.68096     3.78423     0.00423     0.04362     0.00423     0.00000     0.00000     0.00000     0.00000     0.00000     3.83630
    -9.61096     3.78423     0.00423     0.04362     0.00423     0.00000     0.00000     0.00000     0.00000     0.00000     3.83630
    -9.54096     3.78423     0.00423     0.04362     0.00423     0.00000     0.00000     0.00000     0.00000     0.00000     3.83630
    -9.47096     3.78423     0.00423     0.04362     0.00423     0.00000     0.00000     0.00000     0.00000     0.00000     3.83630
    -9.40096     3.78423     0.00423     0.04362     0.00423     0.00000     0.00000     0.00000     0.00000     0.00000     3.83630
    -9.33096     3.78423     0.00423     0.04362     0.00423     0.00000     0.00000     0.00000     0.00000     0.00000     3.83630
    -9.26096     3.78423     0.00423     0.04362     0.00423     0.00000     0.00000     0.00000     0.00000     0.00000     3.83630
    -9.19096     3.78423     0.00423     0.04362     0.00423     0.00000     0.00000     0.00000     0.00000     0.00000     3.83630
    -9.12096     3.78423     0.00423     0.04362     0.00423     0.00000     0.00000     0.00000     0.00000     0.00000     3.83630
    -9.05096     3.78423     0.00423     0.04362     0.00423     0.00000     0.00000     0.00000     0.00000     0.00000     3.83630
    -8.98096     3.78423     0.00423     0.04362     0.00423     0.00000     0.00000     0.00000     0.00000     0.00000     3.83630
    -8.91096     3.78423     0.00423     0.04362     0.00423     0.00000     0.00000     0.00000     0.00000     0.00000     3.83630
    -8.84096     3.78423     0.00423     0.04362     0.00423     0.00000     0.00000     0.00000     0.00000     0.00000     3.83630
    -8.77096     3.78423     0.00423     0.04362     0.00423     0.00000     0.00000     0.00000     0.00000     0.00000     3.83630
    -8.70096     3.78423     0.00423     0.04362     0.00423     0.00000     0.00000     0.00000     0.00000     0.00000     3.83630
    -8.62996     3.78423     0.00423     0.04362     0.00423     0.00000     0.00000     0.00000     0.00000     0.00000     3.83630
    -8.55996     3.78423     0.00423     0.04362     0.00423     0.00000     0.00000     0.00000     0.00000     0.00000     3.83630
    -8.48996     3.78423     0.00423     0.04362     0.00423     0.00000     0.00000     0.00000     0.00000     0.00000     3.83630
    -8.41996     3.78423     0.00423     0.04362     0.00423     0.00000     0.00000     0.00000     0.00000     0.00000     3.83630
    -8.34996     3.78423     0.00423     0.04362     0.00423     0.00000     0.00000     0.00000     0.00000     0.00000     3.83630
    -8.27996     3.78423     0.00423     0.04362     0.00423     0.00000     0.00000     0.00000     0.00000     0.00000     3.83630
    -8.20996     3.78423     0.00423     0.04362     0.00423     0.00000     0.00000     0.00000     0.00000     0.00000     3.83630
    -8.13996     3.78423     0.00423     0.04362     0.00423     0.00000     0.00000     0.00000     0.00000     0.00000     3.83630
    -8.06996     3.78423     0.00423     0.04362     0.00423     0.00000     0.00000     0.00000     0.00000     0.00000     3.83630
    -7.99996     3.78423     0.00423     0.04362     0.00423     0.00000     0.00000     0.00000     0.00000     0.00000     3.83630
    -7.92996     3.78423     0.00423     0.04362     0.00423     0.00000     0.00000     0.00000     0.00000     0.00000     3.83630
    -7.85996     3.78423     0.00423     0.04362     0.00423     0.00000     0.00000     0.00000     0.00000     0.00000     3.83630
    -7.78996     3.78423     0.00423     0.04362     0.00423     0.00000     0.00000     0.00000     0.00000     0.00000     3.83630
    -7.71996     3.78423     0.00423     0.04362     0.00423     0.00000     0.00000     0.00000     0.00000     0.00000     3.83630
    -7.64996     3.78423     0.00423     0.04362     0.00423     0.00000     0.00000     0.00000     0.00000     0.00000     3.83630
    -7.57996     3.78423     0.00423     0.04362     0.00423     0.00000     0.00000     0.00000     0.00000     0.00000     3.83630
    -7.50996     3.78423     0.00423     0.04362     0.00423     0.00000     0.00000     0.00000     0.00000     0.00000     3.83630
    -7.43996     3.78423     0.00423     0.04362     0.00423     0.00000     0.00000     0.00000     0.00000     0.00000     3.83630
    -7.36996     3.78423     0.00423     0.04362     0.00423     0.00000     0.00000     0.00000     0.00000     0.00000     3.83630
    -7.29996     3.78423     0.00423     0.04362     0.00423     0.00000     0.00000     0.00000     0.00000     0.00000     3.83630
    -7.22996     3.78423     0.00423     0.04362     0.00423     0.00000     0.00000     0.00000     0.00000     0.00000     3.83630
    -7.15996     3.78423     0.00423     0.04362     0.00423     0.00000     0.00000     0.00000     0.00000     0.00000     3.83630
    -7.08996     3.78423     0.00423     0.04362     0.00423     0.00000     0.00000     0.00000     0.00000     0.00000     3.83630
    -7.01996     3.78423     0.00423     0.04362     0.00423     0.00000     0.00000     0.00000     0.00000     0.00000     3.83630
    -6.94996     3.78423     0.00423     0.04362     0.00423     0.00000     0.00000     0.00000     0.00000     0.00000     3.83630
    -6.87996     3.78423     0.00423     0.04362     0.00423     0.00000     0.00000     0.00000     0.00000     0.00000     3.83630
    -6.80996     3.78423     0.00423     0.04362     0.00423     0.00000     0.00000     0.00000     0.00000     0.00000     3.83630
    -6.73996     3.78423     0.00423     0.04362     0.00423     0.00000     0.00000     0.00000     0.00000     0.00000     3.83630
    -6.66996     3.78423     0.00423     0.04362     0.00423     0.00000     0.00000     0.00000     0.00000     0.00000     3.83630
    -6.59996     3.78423     0.00423     0.04362     0.00423     0.00000     0.00000     0.00000     0.00000     0.00000     3.83630
    -6.52996     3.78423     0.00423     0.04362     0.00423     0.00000     0.00000     0.00000     0.00000     0.00000     3.83630
    -6.45996     3.78423     0.00423     0.04362     0.00423     0.00000     0.00000     0.00000     0.00000     0.00000     3.83630
    -6.38996     3.78495     0.00423     0.05130     0.00423     0.00000     0.00000     0.00000     0.00000     0.00000     3.84470
    -6.31996     3.78622     0.00445     0.06496     0.00445     0.00000     0.00000     0.00000     0.00000     0.00000     3.86006
    -6.24996     3.78820     0.02135     0.07593     0.02135     0.00000     0.00000     0.00000     0.00000     0.00000     3.90682
    -6.17996     3.79097     0.05255     0.08653     0.05255     0.00000     0.00000     0.00000     0.00000     0.00000     3.98259
    -6.10996     3.79307     0.07583     0.09572     0.07583     0.00000     0.00000     0.00000     0.00000     0.00000     4.04045
    -6.03996     3.79448     0.09192     0.10281     0.09192     0.00000     0.00000     0.00000     0.00000     0.00000     4.08113
    -5.96996     3.79568     0.10536     0.11015     0.10536     0.00000     0.00000     0.00000     0.00000     0.00000     4.11655
    -5.89996     3.79986     0.12219     0.13822     0.12219     0.00000     0.00000     0.00000     0.00000     0.00000     4.18246
    -5.82996     3.80544     0.15975     0.17635     0.15975     0.00000     0.00000     0.00000     0.00000     0.00000     4.30128
    -5.75996     3.80885     0.20201     0.20098     0.20201     0.00000     0.00000     0.00000     0.00000     0.00000     4.41385
    -5.68896     3.81175     0.23206     0.22698     0.23206     0.00000     0.00000     0.00000     0.00000     0.00000     4.50285
    -5.61896     3.81459     0.26349     0.25510     0.26349     0.00000     0.00000     0.00000     0.00000     0.00000     4.59668
    -5.54896     3.81732     0.30105     0.27780     0.30105     0.00000     0.00000     0.00000     0.00000     0.00000     4.69722
    -5.47896     3.82009     0.33801     0.29814     0.33801     0.00000     0.00000     0.00000     0.00000     0.00000     4.79425
    -5.40896     3.82328     0.37460     0.32089     0.37460     0.00000     0.00000     0.00000     0.00000     0.00000     4.89336
    -5.33896     3.82733     0.42153     0.34762     0.42153     0.00000     0.00000     0.00000     0.00000     0.00000     5.01800
    -5.26896     3.83165     0.47011     0.36900     0.47011     0.00000     0.00000     0.00000     0.00000     0.00000     5.14087
